Time (seconds),Controller.Vd_Ref,Controller.Vq_Ref,Ic,Controller.Id_Ref,Controller.Iq_Ref,Controller.Id,Controller.Iq,V_DC
0.000000,0.00947409030050039,0.0359213165938854,-0.770284056663513,0.800000011920929,5,-0.418695420026779,0.740309476852417,34.2724533081055
0.208125,0.0161802787333727,0.0576251447200775,-0.0875265300273895,0.800000011920929,5,-0.269936621189117,1.51168704032898,31.4205055236816
0.416250,0.0226683095097542,0.0784754827618599,1.75936472415924,0.800000011920929,5,-0.205094307661057,1.82206237316132,25.732479095459
0.624375,0.0282038226723671,0.0955343693494797,1.38038980960846,0.800000011920929,5,-0.0405497252941132,2.30507063865662,28.4751796722412
0.832500,0.0337541848421097,0.110229559242725,-1.85566246509552,0.800000011920929,5,-0.0399496555328369,2.66528391838074,26.6864528656006
1.040625,0.0384572707116604,0.121423609554768,-2.62542104721069,0.800000011920929,5,0.0189056396484375,3.21711730957031,25.8166160583496
1.248750,0.0409494377672672,0.131898939609528,1.07752025127411,0.800000011920929,5,0.366304516792297,3.4681408405304,25.2212677001953
1.456875,0.0447730161249638,0.141499981284142,3.59780597686768,0.800000011920929,5,0.31903338432312,3.56210064888,24.7565383911133
1.665000,0.048103079199791,0.148982539772987,0.219702899456024,0.800000011920929,5,0.301074266433716,3.77864742279053,25.0536117553711
1.873125,0.0511440560221672,0.155374079942703,-3.83082175254822,0.800000011920929,5,0.266136527061462,3.95857667922974,24.4710788726807
2.081250,0.0523405261337757,0.159747079014778,-1.89066314697266,0.800000011920929,5,0.52087938785553,4.30401563644409,25.1308307647705
2.289375,0.0534180551767349,0.165729552507401,3.31016850471497,0.800000011920929,5,0.699632048606873,4.16204500198364,26.2458324432373
2.497500,0.0567833594977856,0.169348299503326,3.22760558128357,0.800000011920929,5,0.395774483680725,4.36061334609985,29.3421516418457
2.705625,0.0579338371753693,0.173313111066818,-2.28220176696777,0.800000011920929,5,0.503069281578064,4.34916591644287,24.8071174621582
2.913750,0.0591959580779076,0.175397932529449,-4.28185510635376,0.800000011920929,5,0.520447134971619,4.59444332122803,24.5450115203857
3.121875,0.0586618147790432,0.177493914961815,0.671251237392426,0.800000011920929,5,0.863903880119324,4.70843601226807,25.5462226867676
3.330000,0.0606635734438896,0.18057706952095,4.63548946380615,0.800000011920929,5,0.663668394088745,4.58084344863892,25.1573314666748
3.538125,0.061696395277977,0.182324394583702,0.987483024597168,0.800000011920929,5,0.655444025993347,4.6531457901001,25.2116661071777
3.746250,0.0634964779019356,0.183633968234062,-4.45088481903076,0.800000011920929,5,0.470054447650909,4.75348377227783,27.7990894317627
3.954375,0.0624235048890114,0.18403334915638,-2.75550746917725,0.800000011920929,5,0.835928559303284,4.96895170211792,24.4883937835693
4.162500,0.0627133846282959,0.186252027750015,3.44519662857056,0.800000011920929,5,0.873256504535675,4.7579870223999,24.3925075531006
4.370625,0.0645466521382332,0.187348201870918,3.93917560577393,0.800000011920929,5,0.621053457260132,4.76821327209473,23.986536026001
4.578750,0.0650169625878334,0.188011795282364,-2.13548302650452,0.800000011920929,5,0.633415222167969,4.82187175750732,25.375467300415
4.786875,0.0653954744338989,0.188053667545319,-4.75041246414185,0.800000011920929,5,0.666531801223755,4.97241973876953,24.7000350952148
4.995000,0.0646593272686005,0.188363552093506,0.305617272853851,0.800000011920929,5,0.88060998916626,5.04051876068115,25.8646926879883
5.203125,0.065243236720562,0.190070301294327,4.8328685760498,0.800000011920929,5,0.824458003044128,4.80375814437866,23.1880149841309
5.411250,0.06644456833601,0.190470933914185,1.445192694664,0.800000011920929,5,0.656052350997925,4.84372282028198,26.7836589813232
5.619375,0.0671002268791199,0.190708860754967,-4.38372421264648,0.800000011920929,5,0.608236491680145,4.88452339172363,25.0473537445068
5.827500,0.0664687901735306,0.189704358577728,-3.16967701911926,0.800000011920929,5,0.800204277038574,5.15138959884644,24.4155044555664
6.035625,0.0654082298278809,0.191057607531548,3.15667343139648,0.800000011920929,5,1.04194593429565,4.93336582183838,24.2841682434082
6.243750,0.0673921704292297,0.191389352083206,4.29384326934814,0.800000011920929,5,0.688172936439514,4.92030429840088,25.5501766204834
6.451875,0.0671879723668098,0.191653564572334,-1.65289390087128,0.800000011920929,5,0.773794651031494,4.90897607803345,26.299409866333
6.660000,0.0684118196368217,0.191116437315941,-4.9413275718689,0.800000011920929,5,0.594541311264038,5.05645847320557,23.953950881958
6.868125,0.0663632303476334,0.190676271915436,-0.24038527905941,0.800000011920929,5,1.0339640378952,5.14617824554443,25.1954288482666
7.076250,0.0674246549606323,0.192218765616417,4.81844902038574,0.800000011920929,5,0.834800601005554,4.85044145584106,26.2156581878662
7.284375,0.0679862797260284,0.192218139767647,1.93615388870239,0.800000011920929,5,0.756578803062439,4.86971378326416,25.3194351196289
7.492500,0.0690797939896584,0.192008718848228,-4.23878002166748,0.800000011920929,5,0.58909010887146,4.93875741958618,25.0748271942139
7.700625,0.0678912028670311,0.190616264939308,-3.65927052497864,0.800000011920929,5,0.872443795204163,5.2131552696228,23.7735786437988
7.908750,0.0671537891030312,0.191599428653717,2.8377833366394,0.800000011920929,5,1.01771378517151,5.00389003753662,29.2239952087402
8.116875,0.0688228234648705,0.192255184054375,4.47948503494263,0.800000011920929,5,0.721104502677917,4.88103580474854,24.8487968444824
8.325000,0.069194994866848,0.192026421427727,-1.29986774921417,0.800000011920929,5,0.679153203964233,4.9427170753479,24.7663078308105
8.533125,0.0696054100990295,0.191434144973755,-5.03099250793457,0.800000011920929,5,0.64581823348999,5.06610059738159,24.9343814849854
8.741250,0.0682888776063919,0.190968453884125,-0.638241589069366,0.800000011920929,5,0.94416606426239,5.13765430450439,26.463846206665
8.949375,0.0689738169312477,0.191876128315926,4.74768781661987,0.800000011920929,5,0.81142270565033,4.94047737121582,25.0571823120117
9.157500,0.0697878375649452,0.191967889666557,2.26221060752869,0.800000011920929,5,0.700529456138611,4.94710397720337,25.5736865997314
9.365625,0.070215716958046,0.191966846585274,-3.97623491287231,0.800000011920929,5,0.66206419467926,4.96293878555298,23.814245223999
9.573750,0.0699276700615883,0.191012218594551,-3.82074332237244,0.800000011920929,5,0.761976003646851,5.15547275543213,25.1495418548584
9.781875,0.0680209547281265,0.191728636622429,2.42244958877563,0.800000011920929,5,1.1535621881485,5.00593423843384,24.1521816253662
9.990000,0.070248194038868,0.192133083939552,4.66550302505493,0.800000011920929,5,0.723202228546143,4.93570232391357,22.8107490539551
10.198125,0.070791482925415,0.192273512482643,-0.861376404762268,0.800000011920929,5,0.650450229644775,4.92093658447266,23.7938575744629
10.406250,0.0711969211697578,0.191828235983849,-4.95864057540894,0.800000011920929,5,0.612578630447388,4.99943208694458,26.3170204162598
10.614375,0.0696120858192444,0.190927162766457,-1.12719166278839,0.800000011920929,5,0.953079223632813,5.14959096908569,24.9011669158936
10.822500,0.0703437775373459,0.191888406872749,4.61256170272827,0.800000011920929,5,0.804858803749084,4.93858289718628,25.4983825683594
11.030625,0.0708721727132797,0.191588342189789,2.72960209846497,0.800000011920929,5,0.741489887237549,4.99501609802246,25.2161083221436
11.238750,0.0716020613908768,0.192201137542725,-3.65575861930847,0.800000011920929,5,0.633422195911407,4.87953472137451,24.2779693603516
11.446875,0.0710674300789833,0.190686017274857,-4.13909149169922,0.800000011920929,5,0.790819764137268,5.16013526916504,25.4994335174561
11.655000,0.0696046873927116,0.191186040639877,2.04956912994385,0.800000011920929,5,1.09026336669922,5.0294246673584,25.8376312255859
11.863125,0.0715392529964447,0.191673278808594,4.83113431930542,0.800000011920929,5,0.725184917449951,4.93695449829102,23.4369983673096
12.071250,0.0715520977973938,0.191791757941246,-0.399252980947495,0.800000011920929,5,0.741211175918579,4.90940618515015,26.0019779205322
12.279375,0.0722383409738541,0.191266015172005,-4.98987483978271,0.800000011920929,5,0.649632930755615,5.01650428771973,25.5434036254883
12.487500,0.0707520321011543,0.190220013260841,-1.56821274757385,0.800000011920929,5,0.966763734817505,5.19656848907471,25.8742923736572
12.695625,0.0713421255350113,0.191652789711952,4.36558961868286,0.800000011920929,5,0.854684114456177,4.89371538162231,24.3511047363281
12.903750,0.0723411962389946,0.191305667161942,3.03645992279053,0.800000011920929,5,0.69317090511322,4.9706859588623,28.6127071380615
13.111875,0.0728385448455811,0.191376522183418,-3.3817446231842,0.800000011920929,5,0.635891497135162,4.94818878173828,25.1290493011475
13.320000,0.0726907998323441,0.190284982323647,-4.33448696136475,0.800000011920929,5,0.705860614776611,5.15613555908203,25.4089527130127
13.528125,0.071073479950428,0.190523788332939,1.66220378875732,0.800000011920929,5,1.04809057712555,5.08071327209473,24.1198902130127
13.736250,0.0725753679871559,0.191376000642776,4.91986846923828,0.800000011920929,5,0.741919994354248,4.9061131477356,26.2312164306641
13.944375,0.0729170069098473,0.191178947687149,0.0198059026151896,0.800000011920929,5,0.715029835700989,4.9473090171814,25.4503803253174
14.152500,0.0736652463674545,0.1908278465271,-4.93214511871338,0.800000011920929,5,0.599591255187988,5.00937557220459,26.0568904876709
14.360625,0.0723877251148224,0.189724773168564,-1.98187565803528,0.800000011920929,5,0.8998002409935,5.20136642456055,23.4703044891357
14.568750,0.0724559873342514,0.191085785627365,4.14860343933105,0.800000011920929,5,0.881421685218811,4.90359354019165,26.4272403717041
14.776875,0.0735167190432549,0.190560594201088,3.41752219200134,0.800000011920929,5,0.701416552066803,5.02314853668213,25.8944702148438
14.985000,0.0737447142601013,0.191050544381142,-3.01821994781494,0.800000011920929,5,0.682734966278076,4.91803073883057,25.7071437835693
15.193125,0.0739522203803062,0.189731135964394,-4.58833408355713,0.800000011920929,5,0.692108273506165,5.17099571228027,24.6495914459229
15.401250,0.0725682824850082,0.190327450633049,1.23139035701752,0.800000011920929,5,0.979693412780762,5.03114318847656,25.6993103027344
15.609375,0.0734415873885155,0.191063016653061,4.95126390457153,0.800000011920929,5,0.813974142074585,4.8796558380127,24.6767253875732
15.817500,0.074022464454174,0.190684646368027,0.481860250234604,0.800000011920929,5,0.73219621181488,4.94916677474976,25.7386531829834
16.025625,0.0751207694411278,0.19009505212307,-4.89298677444458,0.800000011920929,5,0.555881261825562,5.0662260055542,24.0899620056152
16.233750,0.0733364671468735,0.189459949731827,-2.4080638885498,0.800000011920929,5,0.951040387153625,5.16459798812866,25.1744976043701
16.441875,0.0737826824188232,0.190377086400986,3.95029282569885,0.800000011920929,5,0.86117148399353,4.96029567718506,25.3308544158936
16.650000,0.0748011469841003,0.190452978014946,3.69698262214661,0.800000011920929,5,0.67767345905304,4.95347929000854,26.1935291290283
16.858125,0.0748698338866234,0.190616622567177,-2.63576078414917,0.800000011920929,5,0.711732625961304,4.92056035995483,24.9342365264893
17.066250,0.0753539130091667,0.189482420682907,-4.72940921783447,0.800000011920929,5,0.644577980041504,5.14409351348877,25.4475708007813
17.274375,0.0736979842185974,0.18933330476284,0.858083963394165,0.800000011920929,5,0.992430210113525,5.13893032073975,25.5391216278076
17.482500,0.0748689472675323,0.190631926059723,4.90479230880737,0.800000011920929,5,0.765784859657288,4.86387872695923,25.5045471191406
17.690625,0.0756160244345665,0.190193593502045,0.876709163188934,0.800000011920929,5,0.660187363624573,4.95890951156616,25.9004878997803
17.898750,0.0761002823710442,0.190066188573837,-4.68901014328003,0.800000011920929,5,0.600648999214172,4.9863395690918,25.4121208190918
18.106875,0.0749689787626266,0.188750252127647,-2.76575613021851,0.800000011920929,5,0.870085000991821,5.21198225021362,24.6915035247803
18.315000,0.0742670968174934,0.18996973335743,3.63026165962219,0.800000011920929,5,0.99918270111084,4.93827724456787,28.2537593841553
18.523125,0.0759041085839272,0.189912304282188,3.99831676483154,0.800000011920929,5,0.715093374252319,4.94388866424561,25.8934059143066
18.731250,0.0760382488369942,0.190104469656944,-2.24166083335876,0.800000011920929,5,0.713664770126343,4.91895532608032,24.4186019897461
18.939375,0.0765583291649818,0.188968941569328,-4.8870735168457,0.800000011920929,5,0.650024652481079,5.13926076889038,24.3999176025391
19.147500,0.0744386166334152,0.188999116420746,0.330610543489456,0.800000011920929,5,1.08651995658875,5.09596538543701,24.9013595581055
19.355625,0.0759963914752007,0.190304040908813,4.86632347106934,0.800000011920929,5,0.778481960296631,4.82080984115601,25.4178085327148
19.563750,0.0765450522303581,0.18971960246563,1.36197447776794,0.800000011920929,5,0.702556610107422,4.93398761749268,25.283296585083
19.771875,0.0773115605115891,0.18931633234024,-4.54846477508545,0.800000011920929,5,0.587027907371521,5.00608444213867,24.8667678833008
19.980000,0.0760504305362701,0.18856193125248,-3.12616634368896,0.800000011920929,5,0.868331074714661,5.12433338165283,23.7274875640869
20.188125,0.0754087194800377,0.189116984605789,3.31995129585266,0.800000011920929,5,1.00007843971252,4.99643993377686,25.4408493041992
20.396250,0.0768220871686935,0.189735934138298,4.20523643493652,0.800000011920929,5,0.732630014419556,4.87109470367432,20.9188289642334
20.604375,0.077330619096756,0.18924854695797,-1.86810624599457,0.800000011920929,5,0.679977655410767,4.97177076339722,25.0050373077393
20.812500,0.0774497613310814,0.188724085688591,-4.94785213470459,0.800000011920929,5,0.70234751701355,5.07253837585449,26.3700923919678
21.020625,0.0763163641095161,0.188066691160202,-0.0264787003397942,0.800000011920929,5,0.958210825920105,5.17214918136597,25.1294174194336
21.228750,0.0769176036119461,0.189530998468399,4.83824443817139,0.800000011920929,5,0.822282552719116,4.86591768264771,25.5107364654541
21.436875,0.0776798874139786,0.188859224319458,1.73521411418915,0.800000011920929,5,0.708051800727844,4.99917602539063,21.7692451477051
21.645000,0.0780445784330368,0.189195975661278,-4.23493099212646,0.800000011920929,5,0.665371477603912,4.91351366043091,25.8897609710693
21.853125,0.0778651982545853,0.187500536441803,-3.42595243453979,0.800000011920929,5,0.745070934295654,5.23994398117065,25.4920711517334
22.061250,0.0760582983493805,0.18875378370285,2.95152449607849,0.800000011920929,5,1.10147798061371,4.95427656173706,25.3851699829102
22.269375,0.0784674510359764,0.189021587371826,4.41184854507446,0.800000011920929,5,0.645010471343994,4.91104221343994,25.5038967132568
22.477500,0.0781684294342995,0.18909664452076,-1.37917447090149,0.800000011920929,5,0.740944147109985,4.90165615081787,28.3295574188232
22.685625,0.0789584666490555,0.188374876976013,-4.99631547927856,0.800000011920929,5,0.633093357086182,5.05507373809814,25.7326793670654
22.893750,0.077183686196804,0.187869623303413,-0.567608177661896,0.800000011920929,5,1.01497578620911,5.11637258529663,26.0243740081787
23.101875,0.0783199369907379,0.188760995864868,4.77873229980469,0.800000011920929,5,0.786084771156311,4.91254711151123,25.7006702423096
23.310000,0.0748090818524361,0.181594416499138,2.15505719184875,0.300000011920929,4,0.744821906089783,4.81508159637451,23.972749710083
23.518125,0.0736380070447922,0.177257686853409,-3.87219190597534,0.300000011920929,4,0.461971700191498,4.67398262023926,25.8984699249268
23.726250,0.0702812224626541,0.172246664762497,-3.40283966064453,0.300000011920929,4,0.672429382801056,4.78637409210205,25.0433540344238
23.934375,0.0669517889618874,0.170140370726585,2.35200786590576,0.300000011920929,4,0.876596331596375,4.47599458694458,24.6862258911133
24.142500,0.0667756274342537,0.167712643742561,4.07088470458984,0.300000011920929,4,0.505375385284424,4.35196208953857,24.4906463623047
24.350625,0.065179705619812,0.165595129132271,-1.02340590953827,0.300000011920929,4,0.47840416431427,4.26502275466919,26.6450862884521
24.558750,0.0638325661420822,0.163393959403038,-4.27312850952148,0.300000011920929,4,0.446246862411499,4.27849435806274,24.2512893676758
24.766875,0.0613811947405338,0.161372393369675,-0.598594605922699,0.300000011920929,4,0.634060621261597,4.30909442901611,25.2335090637207
24.975000,0.0601229704916477,0.160699218511581,3.96613621711731,0.300000011920929,4,0.582284510135651,4.13830375671387,24.755542755127
25.183125,0.0595388561487198,0.159456640481949,2.01178050041199,0.300000011920929,4,0.443705230951309,4.13765239715576,27.1543655395508
25.391250,0.0589420162141323,0.158909976482391,-3.18427348136902,0.300000011920929,4,0.333069264888763,4.04899644851685,26.1276969909668
25.599375,0.0571495033800602,0.157221570611,-3.18060684204102,0.300000011920929,4,0.472283065319061,4.22442102432251,25.419319152832
25.807500,0.0546991415321827,0.156932488083839,1.92621660232544,0.300000011920929,4,0.73053777217865,4.12456846237183,25.191234588623
26.015625,0.0552320964634418,0.157034784555435,3.80625057220459,0.300000011920929,4,0.39426851272583,3.99181127548218,27.580041885376
26.223750,0.0542907863855362,0.156842917203903,-0.623293459415436,0.300000011920929,4,0.384134769439697,3.96490621566772,25.6321392059326
26.431875,0.0538601912558079,0.155907556414604,-4.05209732055664,0.300000011920929,4,0.295663833618164,4.07656860351563,23.2483768463135
26.640000,0.0510193780064583,0.154969871044159,-1.0192209482193,0.300000011920929,4,0.671025812625885,4.19357776641846,25.7446613311768
26.848125,0.0511387474834919,0.156141340732574,3.65801525115967,0.300000011920929,4,0.438245624303818,3.92520499229431,26.0061492919922
27.056250,0.050225455313921,0.155823037028313,2.26150155067444,0.300000011920929,4,0.442393124103546,3.98418045043945,24.8059711456299
27.264375,0.04982590675354,0.156409621238708,-2.83827233314514,0.300000011920929,4,0.347357869148254,3.86688256263733,23.505521774292
27.472500,0.0490042231976986,0.154907152056694,-3.29888319969177,0.300000011920929,4,0.360286235809326,4.16033315658569,24.2559909820557
27.680625,0.0468708202242851,0.155361369252205,1.62840616703033,0.300000011920929,4,0.597157001495361,4.05636310577393,25.1958827972412
27.888750,0.0469657704234123,0.15635472536087,3.79932928085327,0.300000011920929,4,0.405345916748047,3.87940549850464,26.1440563201904
28.096875,0.0460193082690239,0.156091064214706,-0.26111626625061,0.300000011920929,4,0.42823851108551,3.94139409065247,24.1726875305176
28.305000,0.0455502644181252,0.155960485339165,-3.95561528205872,0.300000011920929,4,0.365121245384216,3.9760479927063,23.9014549255371
28.513125,0.0438619293272495,0.155291885137558,-1.23070645332336,0.300000011920929,4,0.544727265834808,4.12714910507202,26.7087116241455
28.721250,0.0432597286999226,0.15642249584198,3.47232031822205,0.300000011920929,4,0.478567272424698,3.91990852355957,25.3665428161621
28.929375,0.0429183654487133,0.15643398463726,2.46665215492249,0.300000011920929,4,0.390264213085175,3.95795083045959,25.6385555267334
29.137500,0.0421815030276775,0.156894952058792,-2.58378148078918,0.300000011920929,4,0.373298168182373,3.90584850311279,24.3545722961426
29.345625,0.0415874309837818,0.156086921691895,-3.46296095848084,0.300000011920929,4,0.346614122390747,4.10276556015015,25.3497505187988
29.553750,0.039212491363287,0.156551316380501,1.2773425579071,0.300000011920929,4,0.648228764533997,4.02812957763672,26.3568325042725
29.761875,0.0392749905586243,0.15737946331501,3.88034963607788,0.300000011920929,4,0.456783890724182,3.89124393463135,26.335620880127
29.970000,0.0389080382883549,0.157607331871986,0.0783533453941345,0.300000011920929,4,0.366970419883728,3.89140129089355,23.9379291534424
30.178125,0.0386868268251419,0.157553270459175,-3.85618782043457,0.300000011920929,4,0.281435012817383,3.94091796875,25.7755565643311
