Time (seconds),Controller.Vd_Ref,Controller.Vq_Ref,Ic,Controller.Id_Ref,Controller.Iq_Ref,Controller.Id,Controller.Iq,V_DC
0.000000,0.00982878636568785,0.0374929308891296,0.04715845733881,0.800000011920929,5,-0.327441573143005,0.947425186634064,34.204906463623
0.208125,0.0164469629526138,0.0598709993064404,1.42276155948639,0.800000011920929,5,-0.187782272696495,1.4822940826416,28.419225692749
0.416250,0.0231471434235573,0.0801041200757027,1.0636214017868,0.800000011920929,5,-0.173308685421944,1.86049044132233,26.7294597625732
0.624375,0.0291674230247736,0.0972860902547836,-1.55779051780701,0.800000011920929,5,-0.129316031932831,2.27376317977905,25.336296081543
0.832500,0.0344480313360691,0.1104950979352,-2.38531827926636,0.800000011920929,5,-0.0601398944854736,2.86178946495056,22.1503868103027
1.040625,0.0373986400663853,0.122337006032467,0.841806650161743,0.800000011920929,5,0.314706444740295,3.22098588943481,24.7228698730469
1.248750,0.0418580733239651,0.133329629898071,3.37108135223389,0.800000011920929,5,0.254674911499023,3.35241365432739,25.6306076049805
1.456875,0.0455132834613323,0.142114967107773,0.357554495334625,0.800000011920929,5,0.242395162582397,3.58738827705383,25.8770065307617
1.665000,0.0488159209489822,0.149362444877625,-3.66537284851074,0.800000011920929,5,0.221618592739105,3.83230471611023,24.6406173706055
1.873125,0.0502670109272003,0.15458419919014,-1.98796033859253,0.800000011920929,5,0.480934470891953,4.21925926208496,25.8834171295166
2.081250,0.0512645617127419,0.161326095461845,3.11402130126953,0.800000011920929,5,0.723292708396912,4.09064483642578,25.683500289917
2.289375,0.0547054894268513,0.166045069694519,3.30297613143921,0.800000011920929,5,0.448125720024109,4.2084846496582,26.0748844146729
2.497500,0.0561106353998184,0.16972228884697,-2.073894739151,0.800000011920929,5,0.529481410980225,4.36576366424561,26.7993927001953
2.705625,0.0580102168023586,0.172640532255173,-4.26171493530273,0.800000011920929,5,0.480545878410339,4.55456113815308,25.3954010009766
2.913750,0.0575492829084396,0.175266057252884,0.439615398645401,0.800000011920929,5,0.842859148979187,4.67018270492554,26.7027549743652
3.121875,0.0597596913576126,0.178640469908714,4.56212663650513,0.800000011920929,5,0.614386320114136,4.55770540237427,23.1287307739258
3.330000,0.060802299529314,0.180787965655327,1.17152392864227,0.800000011920929,5,0.616741180419922,4.6186728477478,22.2375144958496
3.538125,0.062337402254343,0.182646378874779,-4.27133560180664,0.800000011920929,5,0.504997313022614,4.67091846466064,24.2766799926758
3.746250,0.0618763230741024,0.182942643761635,-2.9132068157196,0.800000011920929,5,0.773298025131226,4.96062755584717,26.3807163238525
3.954375,0.0610865242779255,0.185658946633339,3.19508600234985,0.800000011920929,5,1.04525852203369,4.71790981292725,26.444953918457
4.162500,0.0638388693332672,0.186469584703445,4.07961177825928,0.800000011920929,5,0.62660813331604,4.80945205688477,24.3758525848389
4.370625,0.0643875598907471,0.187700092792511,-1.88780105113983,0.800000011920929,5,0.633910179138184,4.79005241394043,26.7316722869873
4.578750,0.0651178061962128,0.187731936573982,-4.81431007385254,0.800000011920929,5,0.60073709487915,4.96744632720947,24.4920272827148
4.786875,0.0641407817602158,0.188253298401833,0.0230596102774143,0.800000011920929,5,0.877790451049805,5.00348854064941,26.7759132385254
4.995000,0.0648828223347664,0.189765378832817,4.82276916503906,0.800000011920929,5,0.787407279014587,4.83859920501709,24.0467205047607
5.203125,0.0656439363956451,0.190438851714134,1.70604538917542,0.800000011920929,5,0.70310652256012,4.82562637329102,26.4138507843018
5.411250,0.0668274536728859,0.190409973263741,-4.30625629425049,0.800000011920929,5,0.552510380744934,4.93376302719116,25.1250305175781
5.619375,0.0660951137542725,0.189790114760399,-3.36925625801086,0.800000011920929,5,0.77525806427002,5.1226806640625,25.3225631713867
5.827500,0.0648000836372375,0.190928980708122,2.95831251144409,0.800000011920929,5,1.06756985187531,4.95180225372314,24.5469169616699
6.035625,0.0672508478164673,0.191661790013313,4.36570882797241,0.800000011920929,5,0.622710227966309,4.86965942382813,24.549991607666
6.243750,0.0670401602983475,0.191645741462708,-1.46833181381226,0.800000011920929,5,0.723327875137329,4.92873382568359,24.4788722991943
6.451875,0.0679272711277008,0.191355690360069,-4.96696901321411,0.800000011920929,5,0.609622240066528,5.0254020690918,27.0144424438477
6.660000,0.0664208307862282,0.190982654690742,-0.472156137228012,0.800000011920929,5,0.964507579803467,5.10753917694092,26.762035369873
6.868125,0.0672401413321495,0.192358925938606,4.74352407455444,0.800000011920929,5,0.814602732658386,4.85329437255859,27.9000663757324
7.076250,0.0681148022413254,0.192006096243858,2.15088081359863,0.800000011920929,5,0.696171998977661,4.95243644714355,25.2477703094482
7.284375,0.0682847499847412,0.192278027534485,-4.01309394836426,0.800000011920929,5,0.703549742698669,4.92959880828857,25.3097801208496
7.492500,0.0683633908629417,0.191059961915016,-3.74580311775208,0.800000011920929,5,0.748988091945648,5.17978525161743,24.014820098877
7.700625,0.0669151991605759,0.191946178674698,2.56744575500488,0.800000011920929,5,1.05601787567139,4.97669506072998,25.8300800323486
7.908750,0.06881083548069,0.192114800214767,4.64728879928589,0.800000011920929,5,0.702154755592346,4.95480823516846,24.6724662780762
8.116875,0.0689166039228439,0.192633047699928,-0.989219784736633,0.800000011920929,5,0.716867208480835,4.85726547241211,25.9005737304688
8.325000,0.0699705332517624,0.191691115498543,-5.00590753555298,0.800000011920929,5,0.553189039230347,5.05649280548096,25.2403469085693
8.533125,0.0679209902882576,0.191595807671547,-0.965430498123169,0.800000011920929,5,0.99284839630127,5.06359195709229,24.985559463501
8.741250,0.0689695328474045,0.192272901535034,4.67925596237183,0.800000011920929,5,0.782853841781616,4.92268323898315,22.5688514709473
8.949375,0.0687837824225426,0.192393407225609,2.60509991645813,0.800000011920929,5,0.859109818935394,4.90453815460205,25.6783351898193
9.157500,0.0701776146888733,0.192209795117378,-3.82304763793945,0.800000011920929,5,0.619797766208649,4.94537782669067,25.7286720275879
9.365625,0.0700177550315857,0.190840721130371,-4.03302240371704,0.800000011920929,5,0.700263381004334,5.2098388671875,24.6264972686768
9.573750,0.0683008953928947,0.191670328378677,2.21261310577393,0.800000011920929,5,1.05745255947113,5.02124786376953,24.5055389404297
9.781875,0.0698204934597015,0.192451700568199,4.75396728515625,0.800000011920929,5,0.762158870697021,4.86865186691284,26.3526706695557
9.990000,0.070663683116436,0.191809430718422,-0.681898534297943,0.800000011920929,5,0.611156463623047,4.99804019927979,24.8233947753906
10.198125,0.0706092789769173,0.191931679844856,-4.99165964126587,0.800000011920929,5,0.694599270820618,4.96970176696777,24.7036590576172
10.406250,0.0696873143315315,0.190775394439697,-1.33927631378174,0.800000011920929,5,0.920370221138,5.16951560974121,24.7906665802002
10.614375,0.0700036212801933,0.191776409745216,4.49213647842407,0.800000011920929,5,0.864224135875702,4.96832132339478,25.3517589569092
10.822500,0.0707443207502365,0.191785231232643,2.92065978050232,0.800000011920929,5,0.741029381752014,4.96128368377686,25.8306198120117
11.030625,0.0711273699998856,0.192174881696701,-3.43579840660095,0.800000011920929,5,0.713798880577087,4.88849925994873,22.3563289642334
11.238750,0.0715925768017769,0.1904226988554,-4.28522872924805,0.800000011920929,5,0.678392291069031,5.22712087631226,24.7621517181396
11.446875,0.0698059275746346,0.191108286380768,1.85596835613251,0.800000011920929,5,1.05011439323425,5.06822681427002,24.9263515472412
11.655000,0.0714604631066322,0.192172527313232,4.82593488693237,0.800000011920929,5,0.719826936721802,4.86294174194336,26.1065769195557
11.863125,0.0717055350542068,0.192036330699921,-0.156495556235313,0.800000011920929,5,0.70354151725769,4.8888521194458,24.9248600006104
12.071250,0.0723695158958435,0.191241323947906,-5.00695276260376,0.800000011920929,5,0.620812296867371,5.04305171966553,25.6416778564453
12.279375,0.0709559470415115,0.189980790019035,-1.84743702411652,0.800000011920929,5,0.939555883407593,5.26834869384766,25.4466705322266
12.487500,0.071175791323185,0.191385835409164,4.31516456604004,0.800000011920929,5,0.891360878944397,4.9732141494751,26.3400955200195
12.695625,0.0721543431282043,0.191582038998604,3.28065657615662,0.800000011920929,5,0.736155271530151,4.92881536483765,23.8610324859619
12.903750,0.0728648453950882,0.191589012742043,-3.14086151123047,0.800000011920929,5,0.636868596076965,4.92560386657715,26.13791847229
13.111875,0.0724329054355621,0.190449178218842,-4.50103950500488,0.800000011920929,5,0.759457468986511,5.14747381210327,24.0269374847412
13.320000,0.0712595582008362,0.190853863954544,1.4321323633194,0.800000011920929,5,1.01259708404541,5.04361438751221,25.7883014678955
13.528125,0.0723786875605583,0.191371217370033,4.96042680740356,0.800000011920929,5,0.795355796813965,4.93100214004517,24.9196968078613
13.736250,0.0731106400489807,0.191214770078659,0.255159378051758,0.800000011920929,5,0.68136727809906,4.95940399169922,24.8584423065186
13.944375,0.073743999004364,0.190701991319656,-4.91882228851318,0.800000011920929,5,0.597677946090698,5.05516624450684,23.9952564239502
14.152500,0.0726022645831108,0.189892649650574,-2.19526338577271,0.800000011920929,5,0.864072442054749,5.18471622467041,25.2625350952148
14.360625,0.0725624710321426,0.190954521298409,4.04489374160767,0.800000011920929,5,0.860828042030334,4.95580291748047,22.0678176879883
14.568750,0.0735575184226036,0.191119685769081,3.5799446105957,0.800000011920929,5,0.69292676448822,4.92917490005493,25.6041698455811
14.776875,0.0736562386155128,0.191405311226845,-2.70642566680908,0.800000011920929,5,0.712007403373718,4.87478017807007,23.656364440918
14.985000,0.0742897912859917,0.189934432506561,-4.63926553726196,0.800000011920929,5,0.626313924789429,5.16659927368164,25.6357173919678
15.193125,0.0725328549742699,0.190105110406876,0.994432210922241,0.800000011920929,5,0.995643615722656,5.10342025756836,25.9174423217773
15.401250,0.0736384764313698,0.190999463200569,5.00181770324707,0.800000011920929,5,0.783872961997986,4.92968273162842,26.4625473022461
15.609375,0.0741972923278809,0.190860599279404,0.731541216373444,0.800000011920929,5,0.715850234031677,4.96293258666992,24.0852794647217
15.817500,0.0750847309827805,0.190801814198494,-4.76412916183472,0.800000011920929,5,0.58054780960083,4.97876358032227,20.0580425262451
16.025625,0.0736563801765442,0.189489886164665,-2.62313508987427,0.800000011920929,5,0.917961180210114,5.20458364486694,28.1164989471436
16.233750,0.0731939300894737,0.191053330898285,3.7186017036438,0.800000011920929,5,1.01050305366516,4.87642621994019,27.0043659210205
16.441875,0.0750676244497299,0.190603449940681,3.8855619430542,0.800000011920929,5,0.669297337532043,4.96976184844971,25.1202526092529
16.650000,0.0750328004360199,0.191359654068947,-2.37818193435669,0.800000011920929,5,0.71277129650116,4.83494186401367,24.9691028594971
16.858125,0.0755971968173981,0.189839035272598,-4.8279333114624,0.800000011920929,5,0.651073217391968,5.13721656799316,25.4051551818848
17.066250,0.0737724527716637,0.189760774374008,0.535162508487701,0.800000011920929,5,1.02901077270508,5.11686325073242,26.4790077209473
17.274375,0.0748951211571693,0.190864011645317,4.97000885009766,0.800000011920929,5,0.811656475067139,4.89551258087158,25.1268177032471
17.482500,0.0756599232554436,0.190658539533615,1.17212295532227,0.800000011920929,5,0.696923732757568,4.93598651885986,25.0912132263184
17.690625,0.0765058919787407,0.190420463681221,-4.64026927947998,0.800000011920929,5,0.564949929714203,4.98182249069214,25.3558979034424
17.898750,0.0749641433358192,0.189245223999023,-3.00903677940369,0.800000011920929,5,0.902728497982025,5.20034551620483,24.9460525512695
18.106875,0.0745695233345032,0.190481498837471,3.43703413009644,0.800000011920929,5,0.981945931911469,4.92761564254761,23.1837635040283
18.315000,0.0758135393261909,0.190448090434074,4.10205411911011,0.800000011920929,5,0.744587540626526,4.92498064041138,25.131763458252
18.523125,0.0761882588267326,0.19038200378418,-2.0280077457428,0.800000011920929,5,0.698550581932068,4.94251489639282,25.7712936401367
18.731250,0.0765737146139145,0.189569383859634,-4.92560338973999,0.800000011920929,5,0.674140930175781,5.10140800476074,23.4475154876709
18.939375,0.0751442387700081,0.189434766769409,0.147041037678719,0.800000011920929,5,0.975974559783936,5.10985279083252,25.1991004943848
19.147500,0.0758144930005074,0.190547466278076,4.90943145751953,0.800000011920929,5,0.84845232963562,4.88393974304199,27.688138961792
19.355625,0.0768675655126572,0.18998609483242,1.57425379753113,0.800000011920929,5,0.667617559432983,4.98584413528442,24.4348850250244
19.563750,0.0771502107381821,0.190238505601883,-4.3769383430481,0.800000011920929,5,0.66650927066803,4.93725490570068,26.9476928710938
19.771875,0.0766488239169121,0.188687965273857,-3.30559015274048,0.800000011920929,5,0.802693426609039,5.22207832336426,24.7139873504639
19.980000,0.0754684805870056,0.189857974648476,3.07462692260742,0.800000011920929,5,1.03870368003845,4.96000146865845,26.7741222381592
20.188125,0.077301025390625,0.189971745014191,4.35456657409668,0.800000011920929,5,0.694938898086548,4.94945430755615,24.5191535949707
20.396250,0.0773852691054344,0.190202847123146,-1.58764171600342,0.800000011920929,5,0.713442325592041,4.8977518081665,25.2402667999268
20.604375,0.0780108794569969,0.188957199454308,-5.02505111694336,0.800000011920929,5,0.637055158615112,5.14455270767212,26.0450477600098
20.812500,0.076225109398365,0.188899159431458,-0.3617784678936,0.800000011920929,5,1.01539814472198,5.11869716644287,24.9427223205566
21.020625,0.0772383138537407,0.189862683415413,4.84340476989746,0.800000011920929,5,0.804611802101135,4.91401863098145,23.6473808288574
21.228750,0.0775126665830612,0.189520806074142,2.05750966072083,0.800000011920929,5,0.784121811389923,4.96500205993652,23.2265758514404
21.436875,0.078379400074482,0.189412847161293,-4.21572303771973,0.800000011920929,5,0.651406645774841,4.98531246185303,23.069408416748
21.645000,0.077861063182354,0.188113778829575,-3.67612242698669,0.800000011920929,5,0.790881276130676,5.230064868927,24.9591045379639
21.853125,0.0765566378831863,0.189144715666771,2.75770616531372,0.800000011920929,5,1.06275236606598,4.98415184020996,27.9871692657471
22.061250,0.0784046873450279,0.189541861414909,4.55575037002563,0.800000011920929,5,0.709048390388489,4.912428855896,24.4088325500488
22.269375,0.0787856802344322,0.189334258437157,-1.18369650840759,0.800000011920929,5,0.661689519882202,4.93186378479004,26.6849899291992
22.477500,0.078896202147007,0.188668057322502,-5.0502142906189,0.800000011920929,5,0.683186292648315,5.06040096282959,24.467041015625
22.685625,0.0778861343860626,0.187957853078842,-0.730041742324829,0.800000011920929,5,0.917612314224243,5.16618347167969,22.1823081970215
22.893750,0.0784999504685402,0.189223378896713,4.70861387252808,0.800000011920929,5,0.802824378013611,4.89517211914063,25.1340160369873
23.101875,0.0790373757481575,0.189020231366158,2.39382100105286,0.800000011920929,5,0.721285343170166,4.93970060348511,27.2044296264648
23.310000,0.077744759619236,0.181556805968285,-3.73797869682312,0.600000023841858,4,0.683301448822021,4.78360462188721,25.1936645507813
23.518125,0.0776501968502998,0.17556768655777,-3.64818906784058,0.600000023841858,4,0.579124391078949,4.93729686737061,24.2285003662109
23.726250,0.0753923654556274,0.172514021396637,2.20725607872009,0.600000023841858,4,0.92438817024231,4.62991333007813,25.3321342468262
23.934375,0.0766610130667686,0.169475302100182,4.25644016265869,0.600000023841858,4,0.598955512046814,4.46739339828491,30.5470714569092
24.142500,0.076687790453434,0.166308134794235,-0.724069058895111,0.600000023841858,4,0.585412859916687,4.41694927215576,24.8896369934082
24.350625,0.0777189806103706,0.16314509510994,-4.47465419769287,0.600000023841858,4,0.412605762481689,4.46581983566284,24.8696193695068
24.558750,0.0765357539057732,0.160330250859261,-0.972654640674591,0.600000023841858,4,0.692740559577942,4.47022438049316,22.9915390014648
24.766875,0.0771895498037338,0.159256651997566,3.94234037399292,0.600000023841858,4,0.600034058094025,4.20842933654785,25.5365600585938
24.975000,0.0781058445572853,0.157092645764351,2.30717468261719,0.600000023841858,4,0.50855827331543,4.24272441864014,26.2667579650879
25.183125,0.0793073624372482,0.155785515904427,-3.11511254310608,0.600000023841858,4,0.372317224740982,4.13606786727905,25.0615139007568
25.391250,0.0792019590735435,0.152800768613815,-3.45394134521484,0.600000023841858,4,0.532477498054504,4.3907790184021,23.6785621643066
25.599375,0.0787139236927032,0.15195320546627,1.7828186750412,0.600000023841858,4,0.735004067420959,4.24562883377075,26.0182571411133
25.807500,0.0807248577475548,0.151276364922523,4.0021071434021,0.600000023841858,4,0.454490900039673,4.10994338989258,25.8866310119629
26.015625,0.0816497653722763,0.150099605321884,-0.432454645633698,0.600000023841858,4,0.424373030662537,4.1002631187439,25.8240661621094
26.223750,0.0827599167823792,0.14848430454731,-4.16821336746216,0.600000023841858,4,0.365285634994507,4.20851612091064,24.9112701416016
26.431875,0.0822155550122261,0.147030428051949,-1.20505440235138,0.600000023841858,4,0.631586909294128,4.27219772338867,25.5042572021484
26.640000,0.0832024440169334,0.147050768136978,3.66483354568481,0.600000023841858,4,0.563014030456543,4.0735650062561,26.2545223236084
26.848125,0.0845674276351929,0.146098360419273,2.51809120178223,0.600000023841858,4,0.45093297958374,4.09296131134033,25.4266395568848
27.056250,0.0858414322137833,0.145555108785629,-2.79459762573242,0.600000023841858,4,0.377052307128906,4.04029989242554,24.2842216491699
27.264375,0.0867559909820557,0.143718376755714,-3.51484990119934,0.600000023841858,4,0.385407090187073,4.25084781646729,24.4372463226318
27.472500,0.0862141028046608,0.14293760061264,1.46480846405029,0.600000023841858,4,0.655630588531494,4.22118186950684,24.7760734558105
27.680625,0.088101364672184,0.143305331468582,3.97603106498718,0.600000023841858,4,0.44994330406189,4.02085494995117,25.1865692138672
27.888750,0.089208222925663,0.142720580101013,-0.0812535807490349,0.600000023841858,4,0.410977482795715,3.9986515045166,24.1845188140869
28.096875,0.0906669050455093,0.141454622149467,-4.05110263824463,0.600000023841858,4,0.311823725700378,4.11791563034058,25.6135025024414
28.305000,0.0902087464928627,0.139806181192398,-1.54673790931702,0.600000023841858,4,0.59544712305069,4.30057430267334,25.9141464233398
28.513125,0.0911463871598244,0.140500038862228,3.40789747238159,0.600000023841858,4,0.566394507884979,4.01534461975098,26.1332149505615
28.721250,0.0927498042583466,0.139834329485893,2.72677850723267,0.600000023841858,4,0.429478853940964,4.03717184066772,23.7613754272461
28.929375,0.0937012583017349,0.139293804764748,-2.47340273857117,0.600000023841858,4,0.413750529289246,4.02189922332764,25.9547920227051
29.137500,0.0951162204146385,0.137352675199509,-3.68087983131409,0.600000023841858,4,0.337146401405334,4.28373146057129,23.2632961273193
29.345625,0.0944689437747002,0.137057617306709,1.0894980430603,0.600000023841858,4,0.644285202026367,4.18521213531494,28.5112419128418
29.553750,0.0960209742188454,0.137363612651825,4.04896259307861,0.600000023841858,4,0.505244374275208,3.99254846572876,25.0874042510986
29.761875,0.0975466221570969,0.13654513657093,0.30247887969017,0.600000023841858,4,0.388885140419006,4.0312614440918,25.7667350769043
29.970000,0.098892405629158,0.135611608624458,-3.96375346183777,0.600000023841858,4,0.316756367683411,4.08890819549561,25.7707958221436
30.178125,0.09841039031744,0.134082481265068,-1.88705027103424,0.600000023841858,4,0.594702482223511,4.24611186981201,25.7789878845215
